Time (s),Biomass (g/L),Lactic Acid (g/L),Lactose (g/L),Volume (L),Temperature (K)
0.0       ,40.1000     ,34.6206        ,18044.9977     ,100.5000  ,300.00    
100.0     ,119.9009    ,156.7843       ,53954.4813     ,200.5000  ,300.31    
200.0     ,239.5011    ,393.2827       ,107771.4901    ,300.5000  ,300.63    
300.0     ,398.8942    ,762.1550       ,179493.6569    ,400.5000  ,300.94    
400.0     ,598.0637    ,1277.0664      ,269118.3568    ,500.5000  ,301.24    
500.0     ,836.9767    ,1949.0454      ,376642.7674    ,600.5000  ,301.55    
600.0     ,1115.5763   ,2787.3469      ,502063.9013    ,700.5000  ,301.84    
700.0     ,1433.7732   ,3799.9374      ,645378.6265    ,800.5000  ,302.13    
800.0     ,1791.4360   ,4993.7908      ,806583.6832    ,900.5000  ,302.41    
900.0     ,2188.3813   ,6375.0791      ,985675.6982    ,1000.5000 ,302.68    
1000.0    ,2624.3623   ,7949.2984      ,1182651.1992   ,1100.5000 ,302.94    
1100.0    ,3099.0578   ,9721.3539      ,1397506.6299   ,1200.5000 ,303.19    
1200.0    ,3612.0604   ,11695.6176     ,1630238.3659   ,1300.5000 ,303.42    
1300.0    ,4162.8644   ,13875.9670     ,1880842.7321   ,1400.5000 ,303.64    
1400.0    ,4750.8548   ,16265.8107     ,2149316.0212   ,1500.5000 ,303.85    
1500.0    ,5375.2957   ,18868.1041     ,2435654.5137   ,1600.5000 ,304.05    
1600.0    ,6035.3205   ,21685.3597     ,2739854.4993   ,1700.5000 ,304.22    
1700.0    ,6729.9229   ,24719.6526     ,3061912.2987   ,1800.5000 ,304.38    
1800.0    ,7457.9492   ,27972.6239     ,3401824.2873   ,1900.5000 ,304.52    
1900.0    ,8218.0933   ,31445.4835     ,3759586.9185   ,2000.5000 ,304.65    
2000.0    ,9008.8924   ,35139.0130     ,4135196.7471   ,2100.5000 ,304.76    
2100.0    ,9828.7272   ,39053.5707     ,4528650.4536   ,2200.5000 ,304.84    
2200.0    ,10675.8227  ,43189.0984     ,4939944.8659   ,2300.5000 ,304.91    
2300.0    ,11548.2537  ,47545.1309     ,5369076.9821   ,2400.5000 ,304.96    
2400.0    ,12443.9518  ,52120.8101     ,5816043.9897   ,2500.5000 ,304.99    
2500.0    ,13360.7161  ,56914.9017     ,6280843.2846   ,2600.5000 ,305.00    
2600.0    ,14296.2263  ,61925.8164     ,6763472.4863   ,2700.5000 ,304.99    
2700.0    ,15248.0588  ,67151.6351     ,7263929.4512   ,2800.5000 ,304.96    
2800.0    ,16213.7050  ,72590.1371     ,7782212.2830   ,2900.5000 ,304.91    
2900.0    ,17190.5909  ,78238.8320     ,8318319.3388   ,3000.5000 ,304.84    
3000.0    ,18176.0988  ,84094.9943     ,8872249.2337   ,3100.5000 ,304.76    
3100.0    ,19167.5900  ,90155.6999     ,9444000.8398   ,3200.5000 ,304.65    
3200.0    ,20162.4271  ,96417.8637     ,10033573.2836  ,3300.5000 ,304.52    
3300.0    ,21157.9971  ,102878.2780    ,10640965.9390  ,3400.5000 ,304.38    
3400.0    ,22151.7326  ,109533.6507    ,11266178.4180  ,3500.5000 ,304.22    
3500.0    ,23141.1327  ,116380.6420    ,11909210.5577  ,3600.5000 ,304.05    
3600.0    ,24123.7815  ,123415.8993    ,12570062.4057  ,3700.5000 ,303.85    
3700.0    ,25097.3646  ,130636.0895    ,13248734.2029  ,3800.5000 ,303.64    
3800.0    ,26059.6830  ,138037.9288    ,13945226.3648  ,3900.5000 ,303.42    
3900.0    ,27008.6640  ,145618.2074    ,14659539.4615  ,4000.5000 ,303.19    
4000.0    ,27942.3696  ,153373.8121    ,15391674.1968  ,4100.5000 ,302.94    
4100.0    ,28859.0014  ,161301.7426    ,16141631.3875  ,4200.5000 ,302.68    
4200.0    ,29756.9031  ,169399.1257    ,16909411.9419  ,4300.5000 ,302.41    
4300.0    ,30634.5595  ,177663.2234    ,17695016.8395  ,4400.5000 ,302.13    
4400.0    ,31490.5933  ,186091.4380    ,18498447.1112  ,4500.5000 ,301.84    
4500.0    ,32323.7596  ,194681.3133    ,19319703.8204  ,4600.5000 ,301.55    
4600.0    ,33132.9377  ,203430.5316    ,20158788.0458  ,4700.5000 ,301.24    
4700.0    ,33917.1220  ,212336.9086    ,21015700.8654  ,4800.5000 ,300.94    
4800.0    ,34675.4107  ,221398.3847    ,21890443.3420  ,4900.5000 ,300.63    
4900.0    ,35406.9938  ,230613.0145    ,22783016.5113  ,5000.5000 ,300.31    
5000.0    ,36111.1403  ,239978.9550    ,23693421.3701  ,5100.5000 ,300.00    
5100.0    ,36787.1852  ,249494.4512    ,24621658.8681  ,5200.5000 ,299.69    
5200.0    ,37434.5158  ,259157.8220    ,25567729.9000  ,5300.5000 ,299.37    
5300.0    ,38052.5585  ,268967.4454    ,26531635.2999  ,5400.5000 ,299.06    
5400.0    ,38640.7664  ,278921.7427    ,27513375.8369  ,5500.5000 ,298.76    
5500.0    ,39198.6065  ,289019.1638    ,28512952.2125  ,5600.5000 ,298.45    
5600.0    ,39725.5489  ,299258.1729    ,29530365.0589  ,5700.5000 ,298.16    
5700.0    ,40221.0553  ,309637.2342    ,30565614.9388  ,5800.5000 ,297.87    
5800.0    ,40684.5704  ,320154.7992    ,31618702.3457  ,5900.5000 ,297.59    
5900.0    ,41115.5125  ,330809.2947    ,32689627.7061  ,6000.5000 ,297.32    
6000.0    ,41513.2669  ,341599.1125    ,33778391.3813  ,6100.5000 ,297.06    
6100.0    ,41877.1789  ,352522.5995    ,34884993.6708  ,6200.5000 ,296.81    
6200.0    ,42206.5499  ,363578.0503    ,36009434.8161  ,6300.5000 ,296.58    
6300.0    ,42500.6329  ,374763.7006    ,37151715.0046  ,6400.5000 ,296.36    
6400.0    ,42758.6303  ,386077.7227    ,38311834.3741  ,6500.5000 ,296.15    
6500.0    ,42979.6931  ,397518.2217    ,39489793.0183  ,6600.5000 ,295.95    
6600.0    ,43162.9209  ,409083.2350    ,40685590.9915  ,6700.5000 ,295.78    
6700.0    ,43307.3634  ,420770.7318    ,41899228.3140  ,6800.5000 ,295.62    
6800.0    ,43412.0238  ,432578.6160    ,43130704.9785  ,6900.5000 ,295.48    
6900.0    ,43475.8626  ,444504.7299    ,44380020.9553  ,7000.5000 ,295.35    
7000.0    ,43497.8040  ,456546.8607    ,45647176.1985  ,7100.5000 ,295.24    
7100.0    ,43476.7427  ,468702.7485    ,46932170.6525  ,7200.5000 ,295.16    
7200.0    ,43411.5535  ,480970.0972    ,48235004.2578  ,7300.5000 ,295.09    
7300.0    ,43301.1013  ,493346.5870    ,49555676.9580  ,7400.5000 ,295.04    
7400.0    ,43144.2537  ,505829.8898    ,50894188.7061  ,7500.5000 ,295.01    
7500.0    ,42939.8950  ,518417.6870    ,52250539.4711  ,7600.5000 ,295.00    
7600.0    ,42686.9417  ,531107.6900    ,53624729.2448  ,7700.5000 ,295.01    
7700.0    ,42384.3608  ,543897.6631    ,55016758.0490  ,7800.5000 ,295.04    
7800.0    ,42031.1885  ,556785.4495    ,56426625.9418  ,7900.5000 ,295.09    
7900.0    ,41626.5522  ,569768.9997    ,57854333.0249  ,8000.5000 ,295.16    
8000.0    ,41169.6936  ,582846.4031    ,59299879.4499  ,8100.5000 ,295.24    
8100.0    ,40659.9928  ,596015.9214    ,60763265.4258  ,8200.5000 ,295.35    
8200.0    ,40096.9956  ,609276.0251    ,62244491.2248  ,8300.5000 ,295.48    
8300.0    ,39480.4404  ,622625.4322    ,63743557.1885  ,8400.5000 ,295.62    
8400.0    ,38810.2873  ,636063.1476    ,65260463.7341  ,8500.5000 ,295.78    
8500.0    ,38086.7471  ,649588.5053    ,66795211.3594  ,8600.5000 ,295.95    
8600.0    ,37310.3106  ,663201.2100    ,68347800.6472  ,8700.5000 ,296.15    
8700.0    ,36481.7778  ,676901.3794    ,69918232.2690  ,8800.5000 ,296.36    
8800.0    ,35602.2854  ,690689.5846    ,71506506.9878  ,8900.5000 ,296.58    
8900.0    ,34673.3327  ,704566.8896    ,73112625.6594  ,9000.5000 ,296.81    
9000.0    ,33696.8046  ,718534.8863    ,74736589.2320  ,9100.5000 ,297.06    
9100.0    ,32674.9911  ,732595.7260    ,76378398.7454  ,9200.5000 ,297.32    
9200.0    ,31610.6014  ,746752.1447    ,78038055.3266  ,9300.5000 ,297.59    
9300.0    ,30506.7730  ,761007.4803    ,79715560.1855  ,9400.5000 ,297.87    
9400.0    ,29367.0732  ,775365.6822    ,81410914.6064  ,9500.5000 ,298.16    
9500.0    ,28195.4932  ,789831.3101    ,83124119.9397  ,9600.5000 ,298.45    
9600.0    ,26996.4337  ,804409.5207    ,84855177.5892  ,9700.5000 ,298.76    
9700.0    ,25774.6801  ,819106.0434    ,86604088.9991  ,9800.5000 ,299.06    
9800.0    ,24535.3691  ,833927.1409    ,88370855.6377  ,9900.5000 ,299.37    
9900.0    ,23283.9435  ,848879.5571    ,90155478.9802  ,10000.5000,299.69    
